#     U-FORS
#Wavelength (nm)	%T
1500	12.33789444
1498	12.1599493
1496	11.98963642
1494	11.80073929
1492	11.60949039
1490	11.42829037
1488	11.23938084
1486	11.03312874
1484	10.82973194
1482	10.62914085
1480	10.41653252
1478	10.20446682
1476	9.987909317
1474	9.775361061
1472	9.560200691
1470	9.340074539
1468	9.116898537
1466	8.898275375
1464	8.679881096
1462	8.46667099
1460	8.244059563
1458	8.043054581
1456	7.854093552
1454	7.63201952
1452	7.454992294
1450	7.268161297
1448	7.094183445
1446	6.897751808
1444	6.730726242
1442	6.576564789
1440	6.411322117
1438	6.268205643
1436	6.117312908
1434	5.979230881
1432	5.855191231
1430	5.719966888
1428	5.607980728
1426	5.501224995
1424	5.375509739
1422	5.279930115
1420	5.186121464
1418	5.087594509
1416	4.997922421
1414	4.907126904
1412	4.821022034
1410	4.745821476
1408	4.656972408
1406	4.578771591
1404	4.501038551
1402	4.418561459
1400	4.340132713
1398	4.250229359
1396	4.189488411
1394	4.102493763
1392	4.024578094
1390	3.948749542
1388	3.877301455
1386	3.81519413
1384	3.751295805
1382	3.705945253
1380	3.665647984
1378	3.640766859
1376	3.635881901
1374	3.623488188
1372	3.603438377
1370	3.563885689
1368	3.505567789
1366	3.443636417
1364	3.366208076
1362	3.303048849
1360	3.208041191
1358	3.127584696
1356	3.049806595
1354	2.958305359
1352	2.864237547
1350	2.778428793
1348	2.680430651
1346	2.587462664
1344	2.490128517
1342	2.399976492
1340	2.30675745
1338	2.206884384
1336	2.11529541
1334	2.030727386
1332	1.930802464
1330	1.855502486
1328	1.76142323
1326	1.678147316
1324	1.606470346
1322	1.531392932
1320	1.460008502
1318	1.389360309
1316	1.32291162
1314	1.266132474
1312	1.206737876
1310	1.152227402
1308	1.102433205
1306	1.054085612
1304	1.011404634
1302	0.971651793
1300	0.92781055
1298	0.890026629
1296	0.858624399
1294	0.827570915
1292	0.79816097
1290	0.769343019
1288	0.743895054
1286	0.718806326
1284	0.703700662
1282	0.673263431
1280	0.655606687
1278	0.636811853
1276	0.621511698
1274	0.607802749
1272	0.590305805
1270	0.5754264
1268	0.562289178
1266	0.55057317
1264	0.535473406
1262	0.52386564
1260	0.512096584
1258	0.502355278
1256	0.49095732
1254	0.481584758
1252	0.46933046
1250	0.461921603
1248	0.447457224
1246	0.434213042
1244	0.421345294
1242	0.420572996
1240	0.400280058
1238	0.390690148
1236	0.384266257
1234	0.368658304
1232	0.352104068
1230	0.344326288
1228	0.333872199
1226	0.31414035
1224	0.310855776
1222	0.301341236
1220	0.289745092
1218	0.270764053
1216	0.267816961
1214	0.2436537
1212	0.241308153
1210	0.229476392
1208	0.220867127
1206	0.206481546
1204	0.200639829
1202	0.193424925
1200	0.18537344
1198	0.176773086
1196	0.165611476
1194	0.167495996
1192	0.15549098
1190	0.147467285
1188	0.141997248
1186	0.134471938
1184	0.127022848
1182	0.12593706
1180	0.11699903
1178	0.112121306
1176	0.107056476
1174	0.103260003
1172	0.101201445
1170	0.091573849
1168	0.093753837
1166	0.085675791
1164	0.087636635
1162	0.077174753
1160	0.075807221
1158	0.070311569
1156	0.066786647
1154	0.067365341
1152	0.075295717
1150	0.054340951
1148	0.051546626
1146	0.052098475
1144	0.051995654
1142	0.043993063
1140	0.053114649
1138	0.04728248
1136	0.04274787
1134	0.041278325
1132	0.0425147
1130	0.036932867
1128	0.036729202
1126	0.034500569
1124	0.033314493
1122	0.029794427
1120	0.030985165
1118	0.029692912
1116	0.029101837
1114	0.025272401
1112	0.029087309
1110	0.026225615
1108	0.020840967
1106	0.02182431
1104	0.029076869
1102	0.023713192
1100	0.023734434
1098	0.01756791
1096	0.019510185
1094	0.019482812
1092	0.019098785
1090	0.020830976
1088	0.016811553
1086	0.017560598
1084	0.018154399
1082	0.016998267
1080	0.016836938
1078	0.014406192
1076	0.01424305
1074	0.018826809
1072	0.025208224
1070	0.005910747
1068	0.01048564
1066	0.010664128
1064	0.011846395
1062	0.008723626
1060	0.007916059
1058	0.009125297
1056	0.010896206
1054	0.00914522
1052	0.008765244
1050	0.006349367
1048	0.008770943
1046	0.007073602
1044	0.009544192
1042	0.005874987
1040	0.006546305
1038	0.004070565
1036	0.005123969
1034	0.003496635
1032	0.006098174
1030	0.00111307
1028	0.003818265
1026	0.008622555
1024	0.002561825
1022	0.005148422
1020	0.001916906
1018	0.002558995
1016	0.002848446
1014	0.000755226
1012	0.00439699
1010	0.017032696
1008	-0.003674671
1006	0.002131494
1004	0.002312508
1002	0.000997293
1000	-0.001928025
998	0.006831394
996	0.003670129
994	0.004162227
992	0.002549234
990	0.002708173
988	0.002254918
986	0.000921136
984	0.002426758
982	0.002612937
980	0.003692719
978	-0.005019068
976	-0.000515475
974	-0.001299163
972	0.002824747
970	0.005229088
968	0.000819577
966	0.001538418
964	0.001741044
962	0.000417857
960	1.93E-05
958	0.001518886
956	0.002182312
954	0.00508774
952	-0.001128405
950	0.004211087
948	0.002753251
946	0.017604763
944	-0.00944021
942	-0.00228041
940	-0.001389138
938	0.003281889
936	-0.002996511
934	0.001419843
932	0.001913392
930	0.004659079
928	0.001727583
926	0.00035243
924	0.003562551
922	-0.001078449
920	0.005787489
918	0.000309405
916	0.00132396
914	0.000139678
912	0.001286928
910	-0.000657219
908	0.002413799
906	3.30E-05
904	-0.000470262
902	-0.004407438
900	0.006318992
898	0.005880506
896	0.000208305
894	-0.005788317
892	0.002621077
890	0.005538814
888	0.003419206
886	0.000212489
884	-0.000598722
882	0.012911939
880	-0.003737326
878	-0.00231283
876	-0.001591091
874	0.000764995
872	0.004076673
870	0.001661103
868	-0.005677627
866	0.00512666
864	0.003602857
862	0.003984311
860	0.001899935
858	-0.001094012
856	-0.000488192
854	0.001127392
852	-0.000241593
850	0.00336765
848	0.004292846
846	0.003068996
844	0.001472992
842	-0.000974474
840	0.002451334
838	-0.002074742
836	-0.001369115
834	0.002177909
832	0.002144652
830	0.000896132
828	0.000364509
826	-0.000760178
824	0.001379942
822	0.000165231
820	0.00111921
818	0.000111347
816	0.000681097
814	0.000788812
812	0.000209202
810	0.000822463
808	0.002095678
806	-0.000190031
804	8.57E-05
802	-0.000317014
800	0.000149951
798	0.001155788
796	-0.000715509
794	0.000692172
792	0.000419408
790	0.000555848
788	0.001024806
786	0.001223641
784	0.001623493
782	0.000687832
780	0.000554753
778	0.000822261
776	0.00022197
774	-4.82E-05
772	0.000824448
770	0.000353378
768	-0.000510862
766	-0.000381935
764	-4.54E-05
762	0.001949521
760	0.003811062
758	0.001483056
756	0.0003555
754	2.17E-05
752	0.000285225
750	0.00108185
748	0.000750336
746	1.80E-05
744	2.28E-05
742	8.87E-05
740	-4.01E-05
738	0.00067995
736	8.33E-05
734	0.000941698
732	-0.000310112
730	9.18E-05
728	0.000813218
726	0.000155682
724	-0.000117975
722	0.000284391
720	0.000870967
718	0.00067565
716	0.000679429
714	8.30E-05
712	0.000152355
710	-0.000565058
708	0.00028451
706	-0.000172547
704	0.000417584
702	8.31E-05
700	-0.000302599
698	0.000347319
696	0.000219478
694	8.79E-05
692	0.000543955
690	0.000803297
688	2.65E-05
686	0.000545377
684	-0.000748921
682	-0.000495219
680	0.00028289
678	0.00054615
676	0.000739915
674	0.000866203
672	-0.000356116
670	-0.000230464
668	0.000995507
666	3.59E-05
664	0.001189449
662	0.000156216
660	0.000416542
658	-3.12E-05
656	0.000676615
654	0.000739243
652	0.000930278
650	0.001057986
648	2.83E-05
646	0.001181667
644	0.000605549
642	0.000603862
640	-0.000231907
638	0.000152825
636	0.001871891
634	0.000720725
632	0.000904037
630	0.000390939
628	0.000706255
626	0.000325301
624	0.00101982
622	0.000317576
620	0.001271934
618	-0.000202743
616	0.001336874
614	0.000190966
612	0.000130524
610	0.000387897
608	1.36E-05
606	0.000584644
604	-4.56E-05
602	0.000780376
600	0.000528315
598	0.000463574
596	0.000845729
594	0.000529554
592	0.000522352
590	0.000644129
588	-0.000504418
586	0.000247125
584	0.00063064
582	-0.000496084
580	0.001404777
578	0.000555421
576	0.001211341
574	-0.000402084
572	0.000374091
570	0.001535245
568	0.000259744
566	-0.00025037
564	0.000134517
562	0.000833156
560	0.000898032
558	-0.000119154
556	0.000578826
554	0.000961967
552	-0.000184201
550	0.000578399
548	-0.000565696
546	9.48E-06
544	0.000274895
542	1.31E-05
540	0.000522188
538	-0.000173937
536	0.001089322
534	0.000326244
532	0.001213569
530	0.000645526
528	-0.000245863
526	6.88E-05
524	0.000202531
522	0.000389445
520	0.000137297
518	0.001085551
516	-0.000744582
514	-0.000233252
512	0.0002626
510	-0.001001161
508	0.001145894
506	0.000259922
504	-0.000561928
502	0.000703894
500	0.000136231
498	0.000515985
496	0.001145768
494	0.000200401
492	9.65E-06
490	0.000954655
488	0.000828468
486	0.001017733
484	0.000516925
482	0.000513205
480	7.48E-05
478	0.001268689
476	0.000193839
474	0.000133385
472	0.000258203
470	-0.000177309
468	-0.000247841
466	0.000383656
464	0.000322434
462	0.000195221
460	-0.000433708
458	6.89E-05
456	0.00025961
454	0.000449516
452	7.13E-05
450	0.000130779
448	0.000635537
446	-0.000682551
444	0.000634243
442	0.00013119
440	0.000444079
438	0.000195272
436	0.000695703
434	-0.000187003
432	0.000632992
430	-0.000510607
428	-0.000432834
426	0.000181834
424	0.000189036
422	0.000309806
420	-0.000328462
418	0.00094324
416	0.00043794
414	0.000241941
412	0.000496095
410	-0.000205743
408	0.000173451
406	0.001634166
404	0.001252319
402	0.002716049
400	0.005838174
398	0.017826982
396	0.058740795
394	0.257964373
392	1.441918731
390	8.374047279
388	29.16237068
386	58.66581345
384	79.7430191
382	87.81122589
380	88.67375946
378	87.46155548
376	85.75481415
374	84.20184326
372	83.44275665
370	83.59967804
368	83.8660965
366	83.78349304
364	83.26164246
362	82.84771729
360	82.47867584
358	81.94657898
356	81.04933167
354	79.99835968
352	78.71244812
350	76.83620453
348	74.29480743
346	71.02267456
344	66.72249603
342	62.27180481
340	58.08354568
338	52.8489418
336	45.77093887
334	38.87973022
332	32.2677536
330	24.88032913
328	18.26254654
326	13.70058537
324	9.786740303
322	6.048472881
320	3.494122267
318	2.0429914
316	0.937304258
314	0.253898889
312	0.093500867
310	0.023891581
308	-0.006801509
306	-0.011415768
304	-0.016902145
302	-0.008922894
300	-0.004939408
